# dimensionless total lensed [l(l+1)/2pi] C_l's
# for l=2 to 2500, i.e. number of multipoles equal to 2499
#
# -> if you prefer output in CAMB/HealPix/LensPix units/order, set 'format' to 'camb' in input file
# -> if you don't want to see such a header, set 'headers' to 'no' in input file
# -> for CMB lensing (phi), these are C_l^phi-phi for the lensing potential.
#    Remember the conversion factors:
#    C_l^dd (deflection) = l(l+1) C_l^phi-phi
#    C_l^gg (shear/convergence) = 1/4 (l(l+1))^2 C_l^phi-phi
#
# 1:l     2:TT                     3:EE                     4:TE                     5:BB                     6:phiphi                 7:TPhi                   8:Ephi               
    2       1.495442760276e-10       7.309265059076e-15       4.815171148065e-13       2.388861370136e-19       8.628903610467e-09       4.854772125557e-10      -2.515854151612e-12 
    3       1.409375667455e-10       1.238839452129e-14       6.068719461087e-13       4.780044795464e-19       5.411291721081e-09       3.469573586111e-10      -2.211507031142e-12 
    4       1.324638933485e-10       1.446592354280e-14       6.277975858852e-13       7.971819679675e-19       3.776588552816e-09       2.639785050798e-10      -1.764116067067e-12 
    5       1.257528917306e-10       1.337973190993e-14       5.879550144252e-13       1.196705767290e-18       2.821984230357e-09       2.093815838899e-10      -1.309529286441e-12 
    6       1.208087576709e-10       1.032478441010e-14       5.173987897642e-13       1.676916267157e-18       2.205212283239e-09       1.709429029509e-10      -8.948468925742e-13 
    7       1.173342233467e-10       6.843838595473e-15       4.365330660493e-13       2.238195799273e-18       1.778233642847e-09       1.425663901560e-10      -5.443860557810e-13 
    8       1.150094176180e-10       4.045255171772e-15       3.576614997251e-13       2.880956135233e-18       1.468351550793e-09       1.208855287022e-10      -2.689334595316e-13 
    9       1.135899950202e-10       2.339962952388e-15       2.880577371197e-13       3.605625259105e-18       1.235838580631e-09       1.038809734688e-10      -7.009986708472e-14 
   10       1.128613018426e-10       1.576066392460e-15       2.317780349462e-13       4.412633936261e-18       1.056623420703e-09       9.029297741241e-11       5.745597583358e-14 
   11       1.126830764957e-10       1.351208675913e-15       1.905546770665e-13       5.302402605995e-18       8.886898865102e-10       7.950622630620e-11       1.233291887529e-13 
   12       1.129466835368e-10       1.294588313343e-15       1.640599038386e-13       6.275329110005e-18       7.765278493316e-10       7.028426674799e-11       1.421600855718e-13 
   13       1.135320831272e-10       1.208007401038e-15       1.505250308358e-13       7.331777732576e-18       6.844563325942e-10       6.274647514902e-11       1.277329346420e-13 
   14       1.143407942257e-10       1.063264028775e-15       1.473981485726e-13       8.472069972743e-18       6.078507021290e-10       5.620932690820e-11       9.279532789276e-14 
   15       1.153792178504e-10       9.202377752157e-16       1.516646922870e-13       9.696477396065e-18       5.433693949419e-10       5.074770640531e-11       4.959311331230e-14 
   16       1.166084638944e-10       8.404031750243e-16       1.602810277617e-13       1.100521682691e-17       4.885455304826e-10       4.611880692142e-11       7.232457039086e-15 
   17       1.179455003099e-10       8.411741251370e-16       1.707678006734e-13       1.239844804483e-17       4.415155573821e-10       4.212235062268e-11      -2.792920670070e-14 
   18       1.193943887664e-10       8.950457247121e-16       1.812583734347e-13       1.387627281879e-17       4.006946006600e-10       3.857273457600e-11      -5.233421667620e-14 
   19       1.209630582495e-10       9.693348481995e-16       1.907730515102e-13       1.543874381463e-17       3.654375302789e-10       3.544037684638e-11      -6.510245800559e-14 
   20       1.225956288976e-10       1.030562381821e-15       1.985685573331e-13       1.708585634027e-17       3.343837602606e-10       3.267209112122e-11      -6.706958890904e-14 
   21       1.243040211345e-10       1.081655448255e-15       2.047244303858e-13       1.881757356061e-17       3.070458376560e-10       3.022365554337e-11      -6.038518045218e-14 
   22       1.260879329793e-10       1.140726895551e-15       2.096934198587e-13       2.063381663442e-17       2.827706820633e-10       2.801369664259e-11      -4.840846272694e-14 
   23       1.279365717948e-10       1.227172459762e-15       2.139233702052e-13       2.253449468754e-17       2.612248133044e-10       2.601113569639e-11      -3.407762214187e-14 
   24       1.298178542320e-10       1.359591118530e-15       2.179345847833e-13       2.451949490324e-17       2.419102418626e-10       2.418236736270e-11      -2.047693880639e-14 
   25       1.317486504201e-10       1.538392513827e-15       2.222217826876e-13       2.658871746889e-17       2.246000750951e-10       2.253677290644e-11      -9.447600298251e-15 
   26       1.337412866773e-10       1.756560535584e-15       2.272302521590e-13       2.874206345010e-17       2.089813615107e-10       2.107676123604e-11      -2.331878078142e-15 
   27       1.357769113209e-10       2.007678387673e-15       2.329801808583e-13       3.097946541504e-17       1.948668547495e-10       1.976942683423e-11       6.620879509158e-16 
   28       1.378198933969e-10       2.285336750215e-15       2.392873933093e-13       3.330087969350e-17       1.820132713241e-10       1.856395053385e-11      -9.525830519578e-17 
   29       1.398799667834e-10       2.589051790552e-15       2.458479732191e-13       3.570632165659e-17       1.703550512892e-10       1.745584863058e-11      -3.801164541914e-15 
   30       1.419713711943e-10       2.920067201653e-15       2.522262635925e-13       3.819584599527e-17       1.597671041768e-10       1.644630547596e-11      -9.226625485312e-15 
   31       1.440979607661e-10       3.279007073412e-15       2.579084723269e-13       4.076954662999e-17       1.500335693397e-10       1.552718037861e-11      -1.492866692955e-14 
   32       1.462626234124e-10       3.663758717287e-15       2.625223782186e-13       4.342758027898e-17       1.411042582878e-10       1.468921489403e-11      -2.002926980274e-14 
   33       1.484586600659e-10       4.070695960467e-15       2.656892046580e-13       4.617016013373e-17       1.329161009852e-10       1.391497677141e-11      -2.370100680170e-14 
   34       1.506731977268e-10       4.496668876180e-15       2.670412868226e-13       4.899754961512e-17       1.253545982185e-10       1.318309428412e-11      -2.518539266423e-14 
   35       1.529128655500e-10       4.944269819322e-15       2.664970854670e-13       5.191004395499e-17       1.183811086325e-10       1.249406632640e-11      -2.459200581432e-14 
   36       1.551854466140e-10       5.418475913487e-15       2.640842959243e-13       5.490799007561e-17       1.119397475885e-10       1.185261310839e-11      -2.238999423144e-14 
   37       1.574933383369e-10       5.924454822497e-15       2.598749239692e-13       5.799177157487e-17       1.059467510056e-10       1.126054185184e-11      -1.915231808519e-14 
   38       1.598370075304e-10       6.464531448238e-15       2.540004613121e-13       6.116172512644e-17       1.003866707646e-10       1.071670074064e-11      -1.535846329945e-14 
   39       1.622114453420e-10       7.040265230778e-15       2.466473370480e-13       6.441820176820e-17       9.524189563667e-11       1.021646102593e-11      -1.154171855533e-14 
   40       1.646043532385e-10       7.653263660883e-15       2.380572466136e-13       6.776159236174e-17       9.046338871103e-11       9.751315812550e-12      -8.351246094333e-15 
   41       1.670017822494e-10       8.304886779214e-15       2.284586254777e-13       7.119228914350e-17       8.598777927339e-11       9.311592909587e-12      -6.389560879919e-15 
   42       1.694089274351e-10       8.995242780693e-15       2.178260472429e-13       7.471054957423e-17       8.180192045658e-11       8.896431762189e-12      -5.644107557425e-15 
   43       1.718349342213e-10       9.723866985743e-15       2.060482385604e-13       7.831659219454e-17       7.789473297915e-11       8.506510837419e-12      -5.882707219565e-15 
   44       1.742868950719e-10       1.048997092777e-14       1.929917450004e-13       8.201063323276e-17       7.423783279273e-11       8.141180050695e-12      -6.802859396536e-15 
   45       1.767695089892e-10       1.129272580404e-14       1.785110677259e-13       8.579284946465e-17       7.079567613204e-11       7.798904464545e-12      -8.072933882316e-15 
   46       1.792845498885e-10       1.213225975576e-14       1.624863341570e-13       8.966325458120e-17       6.756285813622e-11       7.479022674575e-12      -9.481082872244e-15 
   47       1.818307980450e-10       1.300892562019e-14       1.447942568725e-13       9.362178511668e-17       6.453562141844e-11       7.180319856069e-12      -1.082315889275e-14 
   48       1.844038501868e-10       1.392302192623e-14       1.252965751281e-13       9.766833145887e-17       6.170060570548e-11       6.900435566857e-12      -1.185902938484e-14 
   49       1.869958554273e-10       1.487479087212e-14       1.038391801937e-13       1.018027352985e-16       5.903413368664e-11       6.635781679037e-12      -1.231068924263e-14 
   50       1.895987295744e-10       1.586442718662e-14       8.029467181014e-14       1.060247836103e-16       5.650934389863e-11       6.382582660378e-12      -1.195046242521e-14 
   51       1.922154392733e-10       1.689211223950e-14       5.470567484438e-14       1.103341945884e-16       5.412152873383e-11       6.140519707022e-12      -1.089821021835e-14 
   52       1.948513243600e-10       1.795798569432e-14       2.717891241268e-14       1.147306234840e-16       5.186843969403e-11       5.909933909349e-12      -9.401534202933e-15 
   53       1.975107891920e-10       1.906213396002e-14      -2.153683785100e-15       1.192136630912e-16       4.974270477506e-11       5.690761797608e-12      -7.755034357684e-15 
   54       2.001972022695e-10       2.020458868077e-14      -3.313380431055e-14       1.237828410327e-16       4.773148358802e-11       5.482506090086e-12      -6.302661083489e-15 
   55       2.029129381848e-10       2.138534239745e-14      -6.561526088329e-14       1.284376719695e-16       4.582038617786e-11       5.284465700541e-12      -5.357171382510e-15 
   56       2.056597456341e-10       2.260440354748e-14      -9.959336117744e-14       1.331778356347e-16       4.400715958528e-11       5.096559685038e-12      -4.929678191761e-15 
   57       2.084382950063e-10       2.386175248306e-14      -1.351056256353e-13       1.380030382739e-16       4.229079723842e-11       4.918656744315e-12      -4.937035053326e-15 
   58       2.112479512945e-10       2.515732467390e-14      -1.721953034430e-13       1.429129610347e-16       4.066739827588e-11       4.750315163878e-12      -5.277986972388e-15 
   59       2.140866792624e-10       2.649100986615e-14      -2.109117488844e-13       1.479072593935e-16       3.912998878612e-11       4.590763663180e-12      -5.832292733333e-15 
   60       2.169509486106e-10       2.786265124127e-14      -2.513107976939e-13       1.529855625813e-16       3.766834304667e-11       4.438882244798e-12      -6.459847215855e-15 
   61       2.198372229503e-10       2.927198883696e-14      -2.934433044318e-13       1.581475518004e-16       3.627182359779e-11       4.293505599647e-12      -7.029628191649e-15 
   62       2.227470318176e-10       3.071847687207e-14      -3.373168965931e-13       1.633932166885e-16       3.493905080987e-11       4.154456229101e-12      -7.516114896867e-15 
   63       2.256828740239e-10       3.220142373918e-14      -3.829262645753e-13       1.687226556645e-16       3.367009641780e-11       4.021710290099e-12      -7.923052670666e-15 
   64       2.286466906124e-10       3.372004156645e-14      -4.302642438241e-13       1.741360041054e-16       3.246357487845e-11       3.895086762255e-12      -8.255605487169e-15 
   65       2.316398202763e-10       3.527344360804e-14      -4.793218155454e-13       1.796334362720e-16       3.131656039526e-11       3.774238531496e-12      -8.520424579784e-15 
   66       2.346629547790e-10       3.686064163450e-14      -5.300881074170e-13       1.852151672353e-16       3.022450394294e-11       3.658643473699e-12      -8.725717065524e-15 
   67       2.377160943733e-10       3.848054332309e-14      -5.825503943002e-13       1.908814548023e-16       2.918115029206e-11       3.547595538336e-12      -8.881314569326e-15 
   68       2.407990149076e-10       4.013207039231e-14      -6.366940426477e-13       1.966325896025e-16       2.818020882061e-11       3.440402827467e-12      -8.997651660577e-15 
   69       2.439128787053e-10       4.181454663461e-14      -6.925023290556e-13       2.024688587096e-16       2.722094455523e-11       3.337048370241e-12      -9.082307399281e-15 
   70       2.470588715051e-10       4.352738418254e-14      -7.499565860550e-13       2.083905780745e-16       2.630357616683e-11       3.237647836147e-12      -9.142883075980e-15 
   71       2.502376887247e-10       4.526997019135e-14      -8.090362544471e-13       2.143981053070e-16       2.542758498343e-11       3.142250828795e-12      -9.188070407238e-15 
   72       2.534495039669e-10       4.704166731744e-14      -8.697188825753e-13       2.204918412994e-16       2.459167686867e-11       3.050837263551e-12      -9.227692277913e-15 
   73       2.566939375256e-10       4.884181419683e-14      -9.319801255968e-13       2.266722318490e-16       2.379374410039e-11       2.963313745183e-12      -9.272743483439e-15 
   74       2.599700248916e-10       5.066972592368e-14      -9.957937447539e-13       2.329397692819e-16       2.303082724909e-11       2.879509945490e-12      -9.335431472104e-15 
   75       2.632761852586e-10       5.252469452866e-14      -1.061131606646e-12       2.392949940762e-16       2.229907705648e-11       2.799174980949e-12      -9.429217087327e-15 
   76       2.666108650529e-10       5.440582966994e-14      -1.127960784661e-12       2.457383975927e-16       2.159471003353e-11       2.722043969338e-12      -9.564915636694e-15 
   77       2.699746736205e-10       5.631154610934e-14      -1.196234254649e-12       2.522701062037e-16       2.091716070159e-11       2.648059718852e-12      -9.738089209606e-15 
   78       2.733685815840e-10       5.823998321001e-14      -1.265898493355e-12       2.588901422449e-16       2.026643758925e-11       2.577185071792e-12      -9.939418626942e-15 
   79       2.767932630021e-10       6.018915367985e-14      -1.336896166559e-12       2.655985173996e-16       1.964216305056e-11       2.509334163962e-12      -1.015839975848e-14 
   80       2.802490777178e-10       6.215694077343e-14      -1.409166068929e-12       2.723952322945e-16       1.904355552059e-11       2.444370241394e-12      -1.038330347897e-14 
   81       2.837360537061e-10       6.414109549387e-14      -1.482643063867e-12       2.792802760944e-16       1.846941177096e-11       2.382103477059e-12      -1.060113562426e-14 
   82       2.872538694220e-10       6.613923379471e-14      -1.557258023357e-12       2.862536260979e-16       1.791808916538e-11       2.322288787581e-12      -1.079759694733e-14 
   83       2.908018361480e-10       6.814883378184e-14      -1.632937767820e-12       2.933152473331e-16       1.738748791524e-11       2.264623649956e-12      -1.095704307442e-14 
   84       2.943792656170e-10       7.016748488068e-14      -1.709613413730e-12       3.004651074911e-16       1.687556144512e-11       2.208819418167e-12      -1.106573104804e-14 
   85       2.979866815671e-10       7.219368892727e-14      -1.787247138271e-12       3.077032254608e-16       1.638198357082e-11       2.154833639575e-12      -1.112226506044e-14 
   86       3.016247776066e-10       7.422618736842e-14      -1.865809762042e-12       3.150296301359e-16       1.590672645563e-11       2.102672427785e-12      -1.112881703441e-14 
   87       3.052940387848e-10       7.626372251958e-14      -1.945272815742e-12       3.224443456468e-16       1.544954833594e-11       2.052319452988e-12      -1.108800897144e-14 
   88       3.089947304155e-10       7.830503900150e-14      -2.025608621331e-12       3.299473912137e-16       1.500998465261e-11       2.003734993970e-12      -1.100292814463e-14 
   89       3.127268869000e-10       8.034888517680e-14      -2.106790373181e-12       3.375387809999e-16       1.458733918231e-11       1.956854990117e-12      -1.087714229149e-14 
   90       3.164903005501e-10       8.239401458658e-14      -2.188792219236e-12       3.452185239647e-16       1.418067516883e-11       1.911590093428e-12      -1.071471480678e-14 
   91       3.202845104112e-10       8.443918738703e-14      -2.271589342165e-12       3.529866237170e-16       1.378880645451e-11       1.867824720516e-12      -1.052021993537e-14 
   92       3.241087910855e-10       8.648317178604e-14      -2.355158040522e-12       3.608430783681e-16       1.341028861150e-11       1.825416104624e-12      -1.029875796507e-14 
   93       3.279624101660e-10       8.852463553300e-14      -2.439467733518e-12       3.687879974956e-16       1.304376167362e-11       1.784230140711e-12      -1.005548235843e-14 
   94       3.318454691057e-10       9.056179859945e-14      -2.524455423557e-12       3.768219734776e-16       1.268905655944e-11       1.744257146709e-12      -9.794066794802e-15 
   95       3.357581687388e-10       9.259273067467e-14      -2.610047525039e-12       3.849457659957e-16       1.234623943237e-11       1.705511841038e-12      -9.518034588556e-15 
   96       3.397005445483e-10       9.461545638641e-14      -2.696167569212e-12       3.931601913415e-16       1.201527093912e-11       1.667997663828e-12      -9.231234586532e-15 
   97       3.436724591769e-10       9.662795522826e-14      -2.782736174462e-12       4.014661238775e-16       1.169600216750e-11       1.631706333986e-12      -8.937849661361e-15 
   98       3.476735949367e-10       9.862816148707e-14      -2.869671016604e-12       4.098644974975e-16       1.138817060404e-11       1.596617406246e-12      -8.642405204766e-15 
   99       3.517034463198e-10       1.006139641703e-13      -2.956886799182e-12       4.183563070877e-16       1.109139609176e-11       1.562697828240e-12      -8.349777620876e-15 
  100       3.557613125083e-10       1.025832069334e-13      -3.044295223753e-12       4.269426099874e-16       1.080517678782e-11       1.529901497553e-12      -8.065202819533e-15 
  101       3.598462898848e-10       1.045336880072e-13      -3.131804960187e-12       4.356245274494e-16       1.052888512131e-11       1.498168818785e-12      -7.794284709599e-15 
  102       3.639572645426e-10       1.064631601253e-13      -3.219321616957e-12       4.444032461011e-16       1.026176375087e-11       1.467426260612e-12      -7.543003692264e-15 
  103       3.680929047957e-10       1.083693304515e-13      -3.306747711433e-12       4.532800194048e-16       1.000292152247e-11       1.437585912849e-12      -7.317725154356e-15 
  104       3.722519452761e-10       1.102499691291e-13      -3.393989160969e-12       4.622560375220e-16       9.751535495748e-12       1.408565503333e-12      -7.123732589818e-15 
  105       3.764340990620e-10       1.121032517858e-13      -3.480975818768e-12       4.713320137368e-16       9.507496810769e-12       1.380352482129e-12      -6.960582997227e-15 
  106       3.806392553751e-10       1.139274633760e-13      -3.567643669650e-12       4.805085446275e-16       9.270844938631e-12       1.352947808703e-12      -6.826136977324e-15 
  107       3.848671947636e-10       1.157208947984e-13      -3.653928598416e-12       4.897862366886e-16       9.041567647487e-12       1.326346049664e-12      -6.717970450842e-15 
